# space   potential
   0.0000000156015413208152497  -0.0018214997688632420316801  -0.0017408731679503359167371
   0.0000000798868015760608593  -0.0148373080725331014939616  -0.0142944329400146973030328
   0.0000001864114571033658699  -0.0431120258941010831010843  -0.0395031459686334268655017
   0.0000003208167244588270651  -0.0849926493996268489494739  -0.0718314506157348708903498
   0.0000004649543629635730194  -0.1351333780092149050577888  -0.1046477341864642668367580
   0.0000005993596303190342410  -0.1857039814900348917436901  -0.1330137370743696978436788
   0.0000007058842858463391722  -0.2280128077243087914016684  -0.1539721090482936427523697
   0.0000007701695461015847818  -0.2544072031610736805973261  -0.1660016159688056935905820
   0.0000008949818766681067796  -0.3069545723365826317419192  -0.1879553685825122999464298
   0.0000013449786984548260463  -0.4870742927415350753683754  -0.2485291137064429833891666
   0.0000020906512871459608828  -0.7318706424252500175597902  -0.3082510490542312853179396
   0.0000030314881586341898046  -0.9697175255334922194805358  -0.3518038143069773249216325
   0.0000040404516281674109554  -1.1639110995322228259141184  -0.3806020791928573232532074
   0.0000049812884996556398772  -1.3017891209676668573536062  -0.3983576953769443207420409
   0.0000057269610883467742901  -1.3861601075942786565065035  -0.4083236878010161330365690
   0.0000061769579101334944038  -1.4274181204759659458147780  -0.4129764972321767757534872
   0.0000065825979844746905793  -1.4587793152317958256247721  -0.4164225880141096958197977
   0.0000078040179293243580074  -1.5279482795592416177754558  -0.4237621686018944733298497
   0.0000098279863843431545601  -1.5931325207027893231526150  -0.4303713448510457784124128
   0.0000123816864640969162353  -1.6327836122554417741525867  -0.4338859454501215462407515
   0.0000151203015956870918024  -1.6517197988993448376504602  -0.4357400005176121915440035
   0.0000176740016754408534776  -1.6598192172157217871841794  -0.4365289157600997782537888
   0.0000196979701304596500303  -1.6635778312757343311290015  -0.4368941891887105355429810
   0.0000209193900753093174583  -1.6654818155527477685495796  -0.4370790237837499092599103
   0.0000217930763892749710200  -1.6668470636405998686058183  -0.4372114762404885057733850
   0.0000241716310187190577255  -1.6707219674211810644948173  -0.4375870320681336522739002
   0.0000281130432732293432526  -1.6773347886835683340223113  -0.4382266649236017941326793
   0.0000330860381653814061755  -1.6854537155250202129508352  -0.4390097747323887800163789
   0.0000384191307900570065909  -1.6933847622590105785889136  -0.4397724286723907471952089
   0.0000433921256822090729019  -1.6997844571911024935673140  -0.4403861529086207649008600
   0.0000473335379367193550409  -1.7040726137077326640678621  -0.4407965492950234875912940
   0.0000497120925661634417464  -1.7063025615916072030842088  -0.4410097019635630388734171
   0.0000512410436156033363263  -1.7075897236646757626488125  -0.4411326551531660200566876
   0.0000551624444911733176605  -1.7104187966941140075505245  -0.4414026852046220583680736
   0.0000616604484783389410196  -1.7139451428197993720914383  -0.4417388640104996100355095
   0.0000698591697870220711434  -1.7169868480301893054473794  -0.4420284802043907279589519
   0.0000786515657358115939440  -1.7191738663908449069595008  -0.4422365115611482377921959
   0.0000868502870444947240678  -1.7206354109920554140700233  -0.4423754393111011262718080
   0.0000933482910316603474270  -1.7215765905256072976214909  -0.4424648629374758890264729
   0.0000972696919072303287611  -1.7220951712921828136160229  -0.4425141209032484312935196
   0.0000996411261879942344389  -1.7223992403808936479947533  -0.4425429987542958687463113
   0.0001054910848712215789766  -1.7231272323391426670724513  -0.4426121236598166697184809
   0.0001151848285242063415915  -1.7242636949859295736331433  -0.4427199960425173830280698
   0.0001274157078535533048694  -1.7255714164284907674584701  -0.4428440669626911296852256
   0.0001405322329574851866058  -1.7268153734709157376414623  -0.4429620313835505029942397
   0.0001527631122868321634362  -1.7278262311336491929836257  -0.4430578502301634191695712
   0.0001624568559398169124985  -1.7285245894723337833909227  -0.4431240260390102991827632
   0.0001683068146230442705888  -1.7289018986345949802085897  -0.4431597722649522896887220
   0.0001717079506309820014897  -1.7291059908823604995831147  -0.4431791058211568823388404
   0.0001798721786833981845823  -1.7295532227275074443895164  -0.4432214666673993663792430
   0.0001934008099353659386986  -1.7301822434075313505985605  -0.4432810340775653612510609
   0.0002104702788895095315769  -1.7308218378998572184457316  -0.4433415883320440120662909
   0.0002287757589796122765623  -1.7313699996315601303820131  -0.4433934744816409034839921
   0.0002458452279337558694407  -1.7317916514162610130966868  -0.4434333785618651546656110
   0.0002593738591857236235570  -1.7320830399034261581903138  -0.4434609511416543470296858
   0.0002675380872381398337546  -1.7322455249702972679415325  -0.4434763249452536859607221
   0.0002721561434691011430176  -1.7323339142175135929591079  -0.4434846876503761858856478
   0.0002830203524522376264637  -1.7325330258161921737070088  -0.4435035250254309446837908
   0.0003010230192363521294595  -1.7328376810216610248716052  -0.4435323448420411263093399
   0.0003237375094194250941745  -1.7331815346956798151722978  -0.4435648687875474727171365
   0.0003480967703267270983020  -1.7335054812777273003376877  -0.4435955059351778251297560
   0.0003708112605098000630170  -1.7337699379671540622638304  -0.4436205140729982399072640
   0.0003888139272939145660128  -1.7339558097275502568379579  -0.4436380893984397388862817
   0.0003996781362770510494589  -1.7340583939307609995239545  -0.4436477888428932980779962
   0.0004057003312268857579855  -1.7341122584642516546438173  -0.4436528816412138587210734
   0.0004196502327022740442414  -1.7342293085133575480938362  -0.4436639481643709359559580
   0.0004427660829516992567825  -1.7344021716745181560526134  -0.4436802906584988992477747
   0.0004719320259678343762282  -1.7345888970393865680108547  -0.4436979424909434088775129
   0.0005032098935233642522311  -1.7347580073031600988997525  -0.4437139280322622281182987
   0.0005323758365394994258868  -1.7348927902140156565025109  -0.4437266679716363459995421
   0.0005554916867889246384279  -1.7349870296941523051259537  -0.4437355752840320133323360
   0.0005694415882643128704738  -1.7350393938526440518188565  -0.4437405244947335014593648
   0.0005770551404288708262705  -1.7350667050502226462782573  -0.4437431057802451173088798
   0.0005944764459580424448976  -1.7351260854501853181375282  -0.4437487179568578854471639
   0.0006233446276059421108096  -1.7352156544370609392302640  -0.4437571830880652212769633
   0.0006597684550592720865644  -1.7353146225312450212641124  -0.4437665361933594843080186
   0.0006988297550940583387560  -1.7354054986746010325049383  -0.4437751242516203564747457
   0.0007352535825473883145109  -1.7354777517834738542745754  -0.4437819521695883784317971
   0.0007641217641952879804229  -1.7355273645185684827652040  -0.4437866404649291607320549
   0.0007815430697244595990500  -1.7355542905720759971899270  -0.4437891848816402085020627
   0.0007909351975995903248629  -1.7355679140978703678399597  -0.4437904722467593821022547
   0.0008122136187440765885820  -1.7355965909995196838622178  -0.4437931820701546681284810
   0.0008474732797236145601105  -1.7356379868148126277560550  -0.4437970937155049644395888
   0.0008919614232182723105938  -1.7356806590088336150756732  -0.4438011259068390113036173
   0.0009396709815633431722368  -1.7357163347944941644840355  -0.4438044969421330310233031
   0.0009841591250580009227200  -1.7357416522339950137876485  -0.4438068891810311722423421
   0.0010194187860375388942485  -1.7357570418592409566826973  -0.4438083433319542914219369
   0.0010406972071820251579677  -1.7357645533971903795134040  -0.4438090530869080452269770
   0.0010520551292635784475932  -1.7357680572441680499906624  -0.4438093841599332622926966
   0.0010775763775849110485960  -1.7357747196983688287019731  -0.4438100136836138354112791
   0.0011198666658292510695666  -1.7357823176316422575382603  -0.4438107315971537847332229
   0.0011732255569693692421468  -1.7357863735275027572413364  -0.4438111148298122254907128
   0.0012304481994557532175544  -1.7357846622530317404198286  -0.4438109531353314207713368
   0.0012838070905958713901346  -1.7357780831696993928403572  -0.4438103314915554098440964
   0.0013260973788402114111051  -1.7357698132867742657481358  -0.4438095500854905006704598
   0.0013516186271615440121080  -1.7357636214911948968619981  -0.4438089650324933410630024
   0.0013651295619453700930235  -1.7357599971551438411410118  -0.4438086225740642265513713
   0.0013952793490050803982411  -1.7357510862777314475380308  -0.4438077805957713062312564
   0.0014452394124473864293196  -1.7357339849877915227693848  -0.4438061647071496196303997
   0.0015082754828370976713653  -1.7357086596115847143551036  -0.4438037717114025060283211
   0.0015758760352958236985316  -1.7356774063098949767436352  -0.4438008185543008132789566
   0.0016389121056855349405773  -1.7356449164029763565508802  -0.4437977485122405751916119
   0.0016888721691278409716558  -1.7356171292226987290518991  -0.4437951228112678170312222
   0.0017190219561875512768734  -1.7355995654411500161984350  -0.4437934631382975392277501
   0.0017348731221694996176147  -1.7355901054512892223158360  -0.4437925692209311323566112
   0.0017700371595291189939780  -1.7355685897879489232309425  -0.4437905360964198298034944
   0.0018283061461025547789899  -1.7355314236347310075103678  -0.4437870240386843634361469
   0.0019018258273459922799709  -1.7354820683501135381021641  -0.4437823600792067391118678
   0.0019806691156080882126878  -1.7354264045553482453954075  -0.4437770998762112228952503
   0.0020541887968515254968283  -1.7353722227166306080192726  -0.4437719796114957260257938
   0.0021124577834249614986806  -1.7353278708339956448725161  -0.4437677882145665275714919
   0.0021476218207845810918843  -1.7353005479133070121378069  -0.4437652060749950333473635
   0.0021660004364605013778278  -1.7352861088325639560281388  -0.4437638415058360319420672
   0.0022065644356815609754274  -1.7352538707042839405403356  -0.4437607948061905172032482
   0.0022737814933192906918791  -1.7351993943006331910794415  -0.4437556463699070530282142
   0.0023585912170205865570627  -1.7351289363170758761611978  -0.4437489873956126928966626
   0.0024495420669170811164839  -1.7350514546792705772304544  -0.4437416644127591403012900
   0.0025343517906183769816675  -1.7349776000140324505593981  -0.4437346840252380797409160
   0.0026015688482561066981191  -1.7349180700923227949061811  -0.4437290574022312306112781
   0.0026421328474771662957188  -1.7348817508954001986865023  -0.4437256245383688346706208
   0.0026632261313429086459215  -1.7348627534404119643340891  -0.4437238288941509622986814
   0.0027095758039869404822098  -1.7348207519247802466111352  -0.4437198588547451860719661
   0.0027863800806221276570862  -1.7347504148737662443835461  -0.4437132103620279321987141
   0.0028832862783854150759422  -1.7346604551481406009116881  -0.4437047068119869819291523
   0.0029872095157473365495404  -1.7345626162481839749318624  -0.4436954581465811231488772
   0.0030841157135106239683964  -1.7344702329855443689865524  -0.4436867248872083391297849
   0.0031609199901458111432728  -1.7343962936130730145833923  -0.4436797349636741882861202
   0.0032072696627898429795611  -1.7343513859057295700694112  -0.4436754894790966852191616
   0.0032312648333412568625589  -1.7343280562320990689784139  -0.4436732839102051628721313
   0.0032837858909697927381477  -1.7342768061953075520165157  -0.4436684387042187927008285
   0.0033708165345356011152744  -1.7341913481856159329197453  -0.4436603592501203174869318
   0.0034806256379650130604320  -1.7340826425332012128421866  -0.4436500815190297930534769
   0.0035983860886233906030418  -1.7339650699373665432290181  -0.4436389649764188036762391
   0.0037081951920528025481993  -1.7338545932043800679167589  -0.4436285189022570185635175
   0.0037952258356186109253261  -1.7337665041821266331822926  -0.4436201893757938385931539
   0.0038477468932471468009149  -1.7337131328732280355353623  -0.4436151425542670390100852
   0.0038748311689800816852436  -1.7336855506254769121454729  -0.4436125343213618288373823
   0.0039339093231546525333830  -1.7336252507708536096941998  -0.4436068321512700030062604
   0.0040318054815842458565855  -1.7335249399940655390395250  -0.4435973461182182164819210
   0.0041553239222839148669930  -1.7333977278667260790712135  -0.4435853156046846157423147
   0.0042877864120697758987255  -1.7332605688258915233035395  -0.4435723437607345109867651
   0.0044113048527694449091330  -1.7331320448488203300740906  -0.4435601879713856332543287
   0.0045092010111990382323355  -1.7330297863595629515032215  -0.4435505159497197258389178
   0.0045682791653736086467941  -1.7329679170993732562067180  -0.4435446639238413979455800
   0.0045986397647839157357130  -1.7329360776317446202199335  -0.4435416522719008991515466
   0.0046646607270660524896533  -1.7328667400295800771203858  -0.4435350935974137764894465
   0.0047740615482925949364379  -1.7327515528276684619868320  -0.4435241976102534122716747
   0.0049120957578666531173628  -1.7326057344534868676078077  -0.4435104034280178408877759
   0.0050601251126110267930525  -1.7324488059293821073936215  -0.4434955573968915043536754
   0.0051981593221850849739774  -1.7323020022846664645044257  -0.4434816684228892746943984
   0.0053075601434116274207620  -1.7321853528489237206144935  -0.4434706317664144914481028
   0.0053735811056937641747022  -1.7321148375500066141086108  -0.4434639598046622444016407
   0.0054074052472772920693855  -1.7320786772657572605282894  -0.4434605383502245312676848
   0.0054807547292285273971002  -1.7320001861026894651729435  -0.4434531114246643701548578
   0.0056022993611851831449733  -1.7318699030842017450027015  -0.4434407834083110566680830
   0.0057556557712377647700874  -1.7317051569599670735044583  -0.4434251934577546072624443
   0.0059201168167716811119305  -1.7315280645524653291289496  -0.4434084340971101712014502
   0.0060734732268242627370447  -1.7313625722025429709560740  -0.4433927715113271106339710
   0.0061950178587809184849178  -1.7312311821082961849072035  -0.4433803357476591711083813
   0.0062683673407321538126324  -1.7311517996375569428124663  -0.4433728220849180168272596
   0.0063058422429847519816160  -1.7311112168785220966071847  -0.4433689807827365103598538
   0.0063869059561666163826743  -1.7310233731659327993668285  -0.4433606658623250318385089
   0.0065212335467865478744187  -1.7308776453552816576575424  -0.4433468712667939515270632
   0.0066907185889217846153088  -1.7306934999183898327146380  -0.4433294389748116959282243
   0.0068724761510762684413312  -1.7304957033195333959696427  -0.4433107130354981273434589
   0.0070419611932115051822212  -1.7303109897923012461262715  -0.4432932244452106318455264
   0.0071762887838314366739656  -1.7301644194065477488919669  -0.4432793463631637953525910
   0.0072573524970133010750239  -1.7300758975314054488592319  -0.4432709642586942777597869
   0.0072986653784308198542052  -1.7300307642373642380562160  -0.4432666904956716891206270
   0.0073878290344048455629000  -1.7299333117383024482904830  -0.4432574622731392244290305
   0.0075355787316212178433839  -1.7297717014834717019766686  -0.4432421579121375576626463
   0.0077219988374432431063599  -1.7295675831836638813854279  -0.4432228267408087063472522
   0.0079219177420493270408430  -1.7293484434522816695078973  -0.4432020712979006793474923
   0.0081083378478713514364573  -1.7291438929911648880732855  -0.4431826961050906454886444
   0.0082560875450877237169411  -1.7289816418940291420369704  -0.4431673264810017109915918
   0.0083452512010617502929977  -1.7288836737111188401883055  -0.4431580457547311668875523
   0.0083905892801400382835508  -1.7288338438998946955393876  -0.4431533251432881459486168
   0.0084882385904677549320896  -1.7287264874584522544864740  -0.4431431544632573604758363
   0.0086500495422137321788192  -1.7285484964399986385075181  -0.4431262911332624621074672
   0.0088542111433266776354678  -1.7283237614157549444371398  -0.4431049975381786687478325
   0.0090731562162153847617141  -1.7280825711547980194637830  -0.4430821428050507049256623
   0.0092773178173283302183627  -1.7278575099721733554503089  -0.4430608145576790946051915
   0.0094391287690743074650923  -1.7276790353552518020308071  -0.4430438998661592187033875
   0.0095367780794020241136311  -1.7275712898110886506231054  -0.4430336878760531837961878
   0.0095863285746369351209006  -1.7275166050594683575525323  -0.4430285047637989581659212
   0.0096928492508798775456613  -1.7273990225830306854959417  -0.4430173597378476713082307
   0.0098693606050886222014196  -1.7272041105770961078036407  -0.4429988839626395336068754
   0.0100920701330966203906891  -1.7269580665328658763968406  -0.4429755594242839045193705
   0.0103309062000989850677035  -1.7266940713193326129015759  -0.4429505307391212176604256
   0.0105536157281069832569731  -1.7264477858471216631386369  -0.4429271788197828296773650
   0.0107301270823157279127313  -1.7262525158765895660906153  -0.4429086624679505757029574
   0.0108366477585586703374920  -1.7261346453853316784687877  -0.4428974848126246977031428
   0.0108905978884460494932052  -1.7260749387521476805318343  -0.4428918226446102446303144
   0.0110063756421657464590336  -1.7259467896962821242823338  -0.4428796694354285579109387
   0.0111982265467704244360503  -1.7257343877567778989146063  -0.4428595246825112741184682
   0.0114402904332776104989744  -1.7254663091966142562938558  -0.4428340971088311484038513
   0.0116998823202246575447827  -1.7251787224099475182015340  -0.4428068162961723563952887
   0.0119419462067318436077068  -1.7249104719171193256244123  -0.4427813670773389498336314
   0.0121337971113365215847235  -1.7246978150141096808312113  -0.4427611902523665432518385
   0.0122495748650562185505519  -1.7245694607833219613723941  -0.4427490112565848345838049
   0.0123081118480919179253297  -1.7245045595534056470654605  -0.4427428528258848805521097
   0.0124335323908499016665186  -1.7243654908666050662446878  -0.4427296561909073724372377
   0.0126413619937836736728531  -1.7241350106550725751475284  -0.4427077837230984358463104
   0.0129035866703941792810184  -1.7238441498038463706166112  -0.4426801784435733244649214
   0.0131847992031169369830934  -1.7235321633885609671210659  -0.4426505647905924489826646
   0.0134470238797274425912587  -1.7232411892217449622677350  -0.4426229424697631920082586
   0.0136548534826612145975933  -1.7230105408908797937073132  -0.4426010447539431846841751
   0.0137802740254191983387821  -1.7228713368452761578453192  -0.4425878278211484717630242
   0.0138435850800990647990751  -1.7228010645390701149892720  -0.4425811554498228495013734
   0.0139790341234568675499172  -1.7226507149948064867572839  -0.4425668791320090944552135
   0.0142034815726528977630760  -1.7224015555808049882102750  -0.4425432186192302386196218
   0.0144866734709708545880691  -1.7220871503523889067821528  -0.4425133590988956089340434
   0.0147903714753003547033305  -1.7217499426886355706756149  -0.4424813300573127161641196
   0.0150735633736183115283236  -1.7214354750563654050665718  -0.4424514572590311778377270
   0.0152980108228143417414824  -1.7211862229235814769623403  -0.4424277770748215043994378
   0.0154334598661721444923245  -1.7210357986127873264337040  -0.4424134849431736182800989
   0.0155017322109920318434773  -1.7209599764719136771873309  -0.4424062806134797520840607
   0.0156475954665111841035419  -1.7207979798665051784922753  -0.4423908876244576626746152
   0.0158892999099026384357547  -1.7205295327764369428535929  -0.4423653775892478767772786
