# space   potential
   0.0000000156015413208152497  -0.0040662477075787233082860
   0.0000000798868015760608593  -0.0358870039205629945411324
   0.0000001864114571033658699  -0.1110709855518562244602876
   0.0000003208167244588270651  -0.2290761230437099449375182
   0.0000004649543629635730194  -0.3757084190074765350786379
   0.0000005993596303190342410  -0.5270928693335519277241019
   0.0000007058842858463391722  -0.6555641196639908629961724
   0.0000007701695461015847818  -0.7363522412121776827831354
   0.0000008949818766681067796  -0.8983566815175493269762796
   0.0000013449786984548260463  -1.4617457353960001675829972
   0.0000020906512871459608828  -2.2390717438394185379024748
   0.0000030314881586341898046  -3.0014143102259289719313529
   0.0000040404516281674109554  -3.6270722093410245889799626
   0.0000049812884996556398772  -4.0725663868019843505408062
   0.0000057269610883467742901  -4.3455998964279327623216886
   0.0000061769579101334944038  -4.4792191513472445762999996
   0.0000065825979844746905793  -4.5808287915195808892576679
   0.0000078040179293243580074  -4.8050551286751455037915548
   0.0000098279863843431545601  -5.0164816472708961825333063
   0.0000123816864640969162353  -5.1447680779285249741406005
   0.0000151203015956870918024  -5.2033669861452489513453656
   0.0000176740016754408534776  -5.2216882828511312908403852
   0.0000196979701304596500303  -5.2325473859878943727608203
   0.0000209193900753093174583  -5.2450986667143268959989655
   0.0000217930763892749710200  -5.2530799023830212490793201
   0.0000241716310187190577255  -5.2656341907465264995380494
   0.0000281130432732293432526  -5.2854393645389308176163468
   0.0000330860381653814061755  -5.3092319079661320913032796
   0.0000384191307900570065909  -5.3297247752016359001459023
   0.0000433921256822090729019  -5.3395571745994647727684423
   0.0000473335379367193550409  -5.3344512150455578591845551
   0.0000497120925661634417464  -5.3212952734866636461674716
   0.0000512410436156033363263  -5.3059454332533171339036926
   0.0000551624444911733176605  -5.2297552874925177235354568
   0.0000616604484783389410196  -4.9214084587953372817992204
   0.0000698591697870220711434  -3.9424693242644370805294329
   0.0000786515657358115939440  -1.9264104453503754221799227
   0.0000868502870444947240678   0.0893996978663178509805221
   0.0000933482910316603474270   0.3936674014045444813802987
   0.0000972696919072303287611  -0.4228710663184265250436056
   0.0000996411261879942344389  -0.7737084163294416505607387
   0.0001054910848712215789766  -0.3493037912314314041850594
   0.0001151848285242063415915   1.2423275569499225845504498
   0.0001274157078535533048694   4.3924506703598922285891604
   0.0001405322329574851866058  10.3198250621896470136107382
   0.0001527631122868321634362  20.5144729494365591904170287
   0.0001624568559398169124985  34.7764486239680792323269998
   0.0001683068146230442705888  47.3383991830612842477421509
   0.0001717079506309820014897  55.9677366540398040228865284
   0.0001798721786833981845823  80.9429352639752437426068354
   0.0001934008099353659386986 136.7771966860859720327425748
   0.0002104702788895095315769 227.4768945354219624732650118
   0.0002287757589796122765623 330.2539443963261760472960304
   0.0002458452279337558694407 402.1552061830665820707508828
   0.0002593738591857236235570 422.9084452489382783824112266
   0.0002675380872381398337546 414.4414613528609834247617982
   0.0002721561434691011430176 412.7672870039877466297184583
   0.0002830203524522376264637 435.6105402850277528159494977
   0.0003010230192363521294595 483.7968279319164253138296772
   0.0003237375094194250941745 531.8435998409030389666440897
   0.0003480967703267270983020 556.6817975421874962194124237
   0.0003708112605098000630170 542.6283373388536119819036685
   0.0003888139272939145660128 497.0037041381692120012303349
   0.0003996781362770510494589 448.5650151519748192185943481
   0.0004057003312268857579855 412.0741818761651416025415529
   0.0004196502327022740442414 318.0100352172505608905339614
   0.0004427660829516992567825 168.7718348416199205530574545
   0.0004719320259678343762282  13.7062772520303290946230845
   0.0005032098935233642522311 -96.9780390989638050314169959
   0.0005323758365394994258868-150.3626468498363806247652974
   0.0005554916867889246384279-164.0923212788997886946162907
   0.0005694415882643128704738-160.4543161849897501269879285
   0.0005770551404288708262705-157.2819625459484313978464343
   0.0005944764459580424448976-154.8035986006434256978536723
   0.0006233446276059421108096-146.5752253350949558807769790
   0.0006597684550592720865644-121.7082293551115128593664849
   0.0006988297550940583387560 -84.8135644648473032702895580
   0.0007352535825473883145109 -49.8532938076049987330407021
   0.0007641217641952879804229 -26.8063746712627306578724529
   0.0007815430697244595990500 -16.1688944324533494523166155
   0.0007909351975995903248629 -11.9848300078105296506691957
   0.0008122136187440765885820  -6.4830932609498628238497986
   0.0008474732797236145601105  -4.5392327124605564847570349
   0.0008919614232182723105938  -8.8115106280590644871608674
   0.0009396709815633431722368 -16.0346247240811372591906547
   0.0009841591250580009227200 -22.2183095198371987066821021
   0.0010194187860375388942485 -25.9577860399745041775076970
   0.0010406972071820251579677 -27.4828951117986299834683450
   0.0010520551292635784475932 -28.0997101705864622545050224
   0.0010775763775849110485960 -29.5250050236333088093942933
   0.0011198666658292510695666 -31.6002519755575370652422862
   0.0011732255569693692421468 -33.3236528704632917197159259
   0.0012304481994557532175544 -34.3248616258763377118157223
   0.0012838070905958713901346 -34.7122728707135053127785795
   0.0013260973788402114111051 -34.7278550287913745364676288
   0.0013516186271615440121080 -34.4800695346976056043786230
   0.0013651295619453700930235 -34.2335647811543921648080868
   0.0013952793490050803982411 -33.7563170000960468541961745
   0.0014452394124473864293196 -33.1386334379247600168127974
   0.0015082754828370976713653 -32.2957010890197793173683749
   0.0015758760352958236985316 -31.3291520863175350086748949
   0.0016389121056855349405773 -30.4100565425852238377046888
   0.0016888721691278409716558 -29.6669819290426275415484270
   0.0017190219561875512768734 -29.1425005778770440656444407
   0.0017348731221694996176147 -28.8503853810310388894322386
   0.0017700371595291189939780 -28.3316694447839410031519947
   0.0018283061461025547789899 -27.6404943611689617455340340
   0.0019018258273459922799709 -26.8178251073269819926281343
   0.0019806691156080882126878 -25.9782080221644413597914536
   0.0020541887968515254968283 -25.2361402402819336998618382
   0.0021124577834249614986806 -24.6671269048838510684618086
   0.0021476218207845810918843 -24.2930376955525986204520450
   0.0021660004364605013778278 -24.0842316768314326225208788
   0.0022065644356815609754274 -23.6755672167549633400085440
   0.0022737814933192906918791 -23.0919273652469136948184314
   0.0023585912170205865570627 -22.4031758357746291210332856
   0.0024495420669170811164839 -21.7095975669103644634105876
   0.0025343517906183769816675 -21.1021195299074477702561126
   0.0026015688482561066981191 -20.6412553598714296754224051
   0.0026421328474771662957188 -20.3523660439944826805458433
   0.0026632261313429086459215 -20.1986733636185746831870347
   0.0027095758039869404822098 -19.8945633117156681635151472
   0.0027863800806221276570862 -19.4463604149154285494205396
   0.0028832862783854150759422 -18.9160516832244525176065508
   0.0029872095157473365495404 -18.3824857899749538603373367
   0.0030841157135106239683964 -17.9151138727162191344177700
   0.0031609199901458111432728 -17.5614923967078091493476677
   0.0032072696627898429795611 -17.3445529972566241383447050
   0.0032312648333412568625589 -17.2303603285291515589960909
   0.0032837858909697927381477 -16.9980368189585888671899738
   0.0033708165345356011152744 -16.6464492389086480272908375
   0.0034806256379650130604320 -16.2287700388545452767630195
   0.0035983860886233906030418 -15.8076996724878124922497591
   0.0037081951920528025481993 -15.4380691061682231435270296
   0.0037952258356186109253261 -15.1584113672913929349306272
   0.0038477468932471468009149 -14.9894011108377256391577248
   0.0038748311689800816852436 -14.9018344558186282000633582
   0.0039339093231546525333830 -14.7218410754384549932183290
   0.0040318054815842458565855 -14.4449317655125675230465276
   0.0041553239222839148669930 -14.1146864079981959605447628
   0.0042877864120697758987255 -13.7809069301923656780672900
   0.0044113048527694449091330 -13.4871501212183844131686783
   0.0045092010111990382323355 -13.2647119256873828874176979
   0.0045682791653736086467941 -13.1314680609546154954614394
   0.0045986397647839157357130 -13.0630064699162353747396992
   0.0046646607270660524896533 -12.9209151884999098314210642
   0.0047740615482925949364379 -12.6996126871100969424333016
   0.0049120957578666531173628 -12.4347674704659407751705658
   0.0050601251126110267930525 -12.1663689801725460881698382
   0.0051981593221850849739774 -11.9295336954300168486042821
   0.0053075601434116274207620 -11.7499627377917903459092486
   0.0053735811056937641747022 -11.6430194815212004755267117
   0.0054074052472772920693855 -11.5884822515464183112499086
   0.0054807547292285273971002 -11.4747162178099184615120976
   0.0056022993611851831449733 -11.2959869199667526373787041
   0.0057556557712377647700874 -11.0814312511872579136706918
   0.0059201168167716811119305 -10.8634298765906631700772778
   0.0060734732268242627370447 -10.6705795187082053132598958
   0.0061950178587809184849178 -10.5241417936601191485124218
   0.0062683673407321538126324 -10.4372432534891359523498977
   0.0063058422429847519816160 -10.3931608762540719226308283
   0.0063869059561666163826743 -10.3008648249440284416778013
   0.0065212335467865478744187 -10.1549093892756836510216090
   0.0066907185889217846153088  -9.9792158723590826951976851
   0.0068724761510762684413312  -9.8002578273302667355437734
   0.0070419611932115051822212  -9.6415677636849395071294566
   0.0071762887838314366739656  -9.5208816894563668142836832
   0.0072573524970133010750239  -9.4494247464307843387132380
   0.0072986653784308198542052  -9.4133319750255122215776282
   0.0073878290344048455629000  -9.3376024466112230726366761
   0.0075355787316212178433839  -9.2172440091866931766162452
   0.0077219988374432431063599  -9.0720054482199703471678731
   0.0079219177420493270408430  -8.9237231279298807606892296
   0.0081083378478713514364573  -8.7919393656891013932863643
   0.0082560875450877237169411  -8.6915601246214908570664193
   0.0083452512010617502929977  -8.6322049156404734304715021
   0.0083905892801400382835508  -8.6023261249304034947726905
   0.0084882385904677549320896  -8.5395492308380998025540976
   0.0086500495422137321788192  -8.4393804513755341645264707
   0.0088542111433266776354678  -8.3182352953113856131039938
   0.0090731562162153847617141  -8.1942808246401419580706715
   0.0092773178173283302183627  -8.0838862269674223171023186
   0.0094391287690743074650923  -7.9996708932599389640927257
   0.0095367780794020241136311  -7.9499093808994398813183579
   0.0095863285746369351209006  -7.9249301434964545265415836
   0.0096928492508798775456613  -7.8724078995881070497375731
   0.0098693606050886222014196  -7.7883330047635608295308884
   0.0100920701330966203906891  -7.6864448926642232606809557
   0.0103309062000989850677035  -7.5819804238632588777591081
   0.0105536157281069832569731  -7.4887601318409924289198898
   0.0107301270823157279127313  -7.4175415405321913908665010
   0.0108366477585586703374920  -7.3754728441483106138321091
   0.0108905978884460494932052  -7.3544043828751339830773759
   0.0110063756421657464590336  -7.3100879015439481634075491
   0.0111982265467704244360503  -7.2389596349676672559780854
   0.0114402904332776104989744  -7.1525997477217249098657703
   0.0116998823202246575447827  -7.0638858605294272408059442
   0.0119419462067318436077068  -6.9845739949263450085936711
   0.0121337971113365215847235  -6.9238952752871387730237984
   0.0122495748650562185505519  -6.8880541836536375299715473
   0.0123081118480919179253297  -6.8701402234085460207779761
   0.0124335323908499016665186  -6.8324540711231422918103817
   0.0126413619937836736728531  -6.7718309934421938578452682
   0.0129035866703941792810184  -6.6980981938266452857533295
   0.0131847992031169369830934  -6.6222184582343821546146501
   0.0134470238797274425912587  -6.5542619547865381690598952
   0.0136548534826612145975933  -6.5022001064264332015341097
   0.0137802740254191983387821  -6.4714447781797703740380712
   0.0138435850800990647990751  -6.4560991746151472625570023
   0.0139790341234568675499172  -6.4238169143103505120961927
   0.0142034815726528977630760  -6.3717849036382459004812517
   0.0144866734709708545880691  -6.3083985412774143952674422
   0.0147903714753003547033305  -6.2430549273339490667922291
   0.0150735633736183115283236  -6.1844375544602110394976080
   0.0152980108228143417414824  -6.1394719211411175052717226
   0.0154334598661721444923245  -6.1129021795358386981433796
   0.0155017322109920318434773  -6.0996650625886719154777893
   0.0156475954665111841035419  -6.0718218734276216963507977
   0.0158892999099026384357547  -6.0268667426008741827558879
   0.0161942654615321833533326  -5.9720182399155063990292547
   0.0165213137632994506998063  -5.9153843585880920841191255
   0.0168262793149289956173842  -5.8645002819571221408523343
   0.0170679837583204499495970  -5.8254180433029620900242662
   0.0172138470138396039443851  -5.8023174866290343487662540
   0.0172872678672953625222952  -5.7908242823530473586401968
   0.0174439310465373947911516  -5.7666535694078930873729405
   0.0177035316320574391546483  -5.7275666195783898615445651
   0.0180310772686026951627802  -5.6798091010950004786650425
   0.0183823406936387614973860  -5.6304207612929237924959125
   0.0187098863301840175055180  -5.5859800003304957982663836
   0.0189694869157040618690147  -5.5518055796976772953144064
   0.0191261500949460941378710  -5.5315987650674482978274682
   0.0192049066755335673395422  -5.5215576156352623726775164
   0.0193727554900600153209300  -5.5004449698168818017052217
   0.0196508913656418086890465  -5.4662538605263559787772465
   0.0200018235187069196023835  -5.4244209664302633910892837
   0.0203781668928428097431471  -5.3810955158834916645105295
   0.0207290990459079206564841  -5.3420541536360310885811487
   0.0210072349214897140246006  -5.3119969858788351757539203
   0.0211750837360161620059884  -5.2942180477748745914823303
   0.0212593632622312019020416  -5.2853933140388402733833573
   0.0214387834236035926260833  -5.2668421045809665770320862
   0.0217360937371803009110494  -5.2367583314193941745884331
   0.0221112188383693966664545  -5.1999024659192603081692141
   0.0225135069874361423702958  -5.1616772686887095744623366
   0.0228886320886252381257009  -5.1271840663408001503853484
   0.0231859424022019464106670  -5.1005986676047179173565382
   0.0233653625635743371347086  -5.0848674481505478084386596
   0.0234553522539127992652119  -5.0770673415442555409526904
   0.0236467294736926632314766  -5.0606732434174155343953316
   0.0239638533731974488760752  -5.0340531614690062767181189
   0.0243639778541146559409647  -5.0013994458366042294983345
   0.0247930756039432820259094  -4.9674859449112576115226148
   0.0251932000848604890907989  -4.9368424129565005031849978
   0.0255103239843652747353975  -4.9131984512387996133497836
   0.0257017012041451387016622  -4.8992027168094285372035301
   0.0257975882771028681983427  -4.8922700173603583806425377
   0.0260013082668517428452937  -4.8777013791613494930743400
   0.0263388849002177752312015  -4.8540157706654492031361769
   0.0267648151924672304813324  -4.8249260623929774993712272
   0.0272215873688887756431942  -4.7946737656117344172912453
   0.0276475176611382308933251  -4.7673027860852208448250167
   0.0279850942945042632792330  -4.7461615633345139997345541
   0.0281888142842531379261839  -4.7336430528731971989486738
   0.0282907859583259868596627  -4.7274479861051599272059320
   0.0285072344296053992174222  -4.7144311264855973675480527
   0.0288659029447658338485283  -4.6932424392601301832428362
   0.0293184454799516706902107  -4.6671883130299427477893914
   0.0298037569087971528081216  -4.6400577274371084257609255
   0.0302562994439829896498040  -4.6154799386807798811105386
   0.0306149679591434242809100  -4.5964766295629537751210592
   0.0308314164304228366386695  -4.5852205757376482964104980
   0.0309396599241066570795677  -4.5796553841519962446682257
   0.0311692225884781411171520  -4.5679629680468121222247646
   0.0315496221333661439056861  -4.5489070527383415054600846
   0.0320295833430924992146771  -4.5254481250504099421050341
   0.0325442988501929431066628  -4.5009889744403102085357204
   0.0330242600599192984156538  -4.4788037132201754531024562
   0.0334046596048073046736349  -4.4616330553155130189679767
   0.0336342222691787817723252  -4.4514597286636616857435911
   0.0337489248009694153829230  -4.4464343817430318495098618
   0.0339919873699945015999013  -4.4358765545541292141251688
   0.0343947570925432419275403  -4.4186488455863264235290444
   0.0349029434084142387018090  -4.3974162909035747759389778
   0.0354479278196006830636833  -4.3752509384830577943148455
   0.0359561141354716798379521  -4.3551217242880531088644602
   0.0363588838580204201655910  -4.3395270822460361159755848
   0.0366019464270455063825693  -4.3302853628375261862970547
   0.0367232952154388087029346  -4.3257242678977032568354844
   0.0369802434006790275988763  -4.3161416416541360518976944
   0.0374060224488216644389560  -4.3004860697398292757043237
   0.0379432403024414430237066  -4.2811694075271997661502610
   0.0385193584435449057346013  -4.2609795360529165719754019
   0.0390565762971646843193518  -4.2426223837657595083783235
   0.0394823553453073211594315  -4.2283869358698753515568569
   0.0397393035305475400553732  -4.2199491150891184076954232
   0.0398674857940393492783393  -4.2157884620531671515664129
   0.0401387053070562313528136  -4.2070464908980182983100349
   0.0405881328287259340870108  -4.1927465968248336380952423
   0.0411551886516986209496594  -4.1750830736992519121031364
   0.0417633053485501476442820  -4.1565989596985115639427022
   0.0423303611715228345069306  -4.1397729419835460618060097
   0.0427797886931925372411278  -4.1267125691781316731976403
   0.0430510082062094193156021  -4.1189701785540080436476273
   0.0431862111632956013895779  -4.1151558472197899973821222
   0.0434720877156506840810479  -4.1071404904930215451486220
   0.0439458028587806082132516  -4.0940126079902885436467841
   0.0445435030827103506378961  -4.0777790254334238539968283
   0.0451844831611409591953787  -4.0607712809116094376804540
   0.0457821833850707016200232  -4.0452712677790101380992382
   0.0462558985282006257522269  -4.0332290684544078729345529
   0.0465417750805557084436970  -4.0260896493510927030001767
   0.0466841859497321085004096  -4.0225755490271604131180538
   0.0469851052529869153695508  -4.0151896925041210550944015
   0.0474837471655102302814377  -4.0030772350318315488948429
   0.0481128982220011408577065  -3.9880831061264108150510310
   0.0487876065078418630349688  -3.9723557432289879898235085
   0.0494167575643327736112376  -3.9580062844057404269904055
   0.0499153994768560885231246  -3.9468479434241192649324148
   0.0502163187801108953922657  -3.9402323220240367263045300
   0.0503661247798733655023362  -3.9369790241568214383960367
   0.0506824725455894270487178  -3.9301396187255206449151501
   0.0512066803754392951830710  -3.9189085416814410933739055
   0.0518680886960955142561680  -3.9049906398024321063644493
   0.0525773900151773679323419  -3.8903755416666858657492867
   0.0532387983358335870054390  -3.8770259842716345843882664
   0.0537630061656834551397921  -3.8666360677641664622683493
