# space   potential
             0.0000000156015413208152497             6.6234286785870573055490240
             0.0000000798868015760608593             6.6234286785870573055490240
             0.0000001864114571033658699             6.6234286785870573055490240
             0.0000003208167244588270651             6.6234286785870573055490240
             0.0000004649543629635730194             6.6234286785870573055490240
             0.0000005993596303190342410             6.6234286785870564173706043
             0.0000007058842858463391722             6.6234286785870555291921846
             0.0000007701695461015847818             6.6234286785870537528353452
             0.0000008949818766681067796             6.6234286785870510883000861
             0.0000013449786984548260463             6.6234286785870128966280390
             0.0000020906512871459608828             6.6234286785864942004309341
             0.0000030314881586341898046             6.6234286785828366816986090
             0.0000040404516281674109554             6.6234286785698648358788887
             0.0000049812884996556398772             6.6234286785430382948902661
             0.0000057269610883467742901             6.6234286785077802761634302
             0.0000061769579101334944038             6.6234286784793994229403324
             0.0000065825979844746905793             6.6234286784520381985430504
             0.0000078040179293243580074             6.6234286783467197778918489
             0.0000098279863843431545601             6.6234286780712023912087716
             0.0000123816864640969162353             6.6234286775309403338951597
             0.0000151203015956870918024             6.6234286767111516525119441
             0.0000176740016754408534776             6.6234286757282152535708519
             0.0000196979701304596500303             6.6234286748036526049077111
             0.0000209193900753093174583             6.6234286741846215562645739
             0.0000217930763892749710200             6.6234286737352157103941863
             0.0000241716310187190577255             6.6234286724308439886499400
             0.0000281130432732293432526             6.6234286698969047080254313
             0.0000330860381653814061755             6.6234286660327379436807860
             0.0000384191307900570065909             6.6234286610509487402964623
             0.0000433921256822090729019             6.6234286556126997780324928
             0.0000473335379367193550409             6.6234286507526407561385895
             0.0000497120925661634417464             6.6234286475828429985313051
             0.0000512410436156033363263             6.6234286455181354824617301
             0.0000551624444911733176605             6.6234286400051995968851770
             0.0000616604484783389410196             6.6234286298036391116283994
             0.0000698591697870220711434             6.6234286150275076821003495
             0.0000786515657358115939440             6.6234285968184440918093969
             0.0000868502870444947240678             6.6234285776380072974234281
             0.0000933482910316603474270             6.6234285609298622077290020
             0.0000972696919072303287611             6.6234285502032221870649664
             0.0000996411261879942344389             6.6234285436429347626585695
             0.0001054910848712215789766             6.6234285269997865697177986
             0.0001151848285242063415915             6.6234284970597023800564784
             0.0001274157078535533048694             6.6234284550749675801739613
             0.0001405322329574851866058             6.6234284048241711673199461
             0.0001527631122868321634362             6.6234283530856492561156301
             0.0001624568559398169124985             6.6234283087295917624715003
             0.0001683068146230442705888             6.6234282805277766570384301
             0.0001717079506309820014897             6.6234282639643264900541908
             0.0001798721786833981845823             6.6234282233327341771200736
             0.0001934008099353659386986             6.6234281513867907520420886
             0.0002104702788895095315769             6.6234280523845630028745290
             0.0002287757589796122765623             6.6234279360085688281856164
             0.0002458452279337558694407             6.6234278179717049894748016
             0.0002593738591857236235570             6.6234277178939287011871784
             0.0002675380872381398337546             6.6234276547078181351935200
             0.0002721561434691011430176             6.6234276186376863648774815
             0.0002830203524522376264637             6.6234275322732285573579247
             0.0003010230192363521294595             6.6234273809907264762841805
             0.0003237375094194250941745             6.6234271755594154029722631
             0.0003480967703267270983020             6.6234269371992811059612905
             0.0003708112605098000630170             6.6234266980922624767913476
             0.0003888139272939145660128             6.6234264970364646885059301
             0.0003996781362770510494589             6.6234263707636387152888346
             0.0004057003312268857579855             6.6234263001799495995669531
             0.0004196502327022740442414             6.6234261342373628167479183
             0.0004427660829516992567825             6.6234258457891668214756464
             0.0004719320259678343762282             6.6234254578558591219916707
             0.0005032098935233642522311             6.6234250120796911431853005
             0.0005323758365394994258868             6.6234245686543271602886307
             0.0005554916867889246384279             6.6234241981875268123758360
             0.0005694415882643128704738             6.6234239664819698489850452
             0.0005770551404288708262705             6.6234238390450306255274882
             0.0005944764459580424448976             6.6234235436938053709354790
             0.0006233446276059421108096             6.6234230332855981160378178
             0.0006597684550592720865644             6.6234223519084221010189140
             0.0006988297550940583387560             6.6234215748380362853708903
             0.0007352535825473883145109             6.6234208070073616880790723
             0.0007641217641952879804229             6.6234201688170672994715460
             0.0007815430697244595990500             6.6234197710078861476290513
             0.0007909351975995903248629             6.6234195550111225614386967
             0.0008122136187440765885820             6.6234190601341742521412925
             0.0008474732797236145601105             6.6234182088072941496648127
             0.0008919614232182723105938             6.6234170789619684072135897
             0.0009396709815633431722368             6.6234157982376018480863422
             0.0009841591250580009227200             6.6234145395863555094706498
             0.0010194187860375388942485             6.6234134978776788571508405
             0.0010406972071820251579677             6.6234128503483891137193496
             0.0010520551292635784475932             6.6234125024220151800591339
             0.0010775763775849110485960             6.6234117127757023979484075
             0.0011198666658292510695666             6.6234103593413360400177226
             0.0011732255569693692421468             6.6234085716648545272278170
             0.0012304481994557532175544             6.6234065553448804308800391
             0.0012838070905958713901346             6.6234045826782681487543414
             0.0013260973788402114111051             6.6234029558175713248147076
             0.0013516186271615440121080             6.6234019469307572336447265
             0.0013651295619453700930235             6.6234014095268340938105212
             0.0013952793490050803982411             6.6234001994536653157297224
             0.0014452394124473864293196             6.6233981316761179058971720
             0.0015082754828370976713653             6.6233954112433659489056481
             0.0015758760352958236985316             6.6233923556476099747669650
             0.0016389121056855349405773             6.6233893775468954956409107
             0.0016888721691278409716558             6.6233869289196878327175000
             0.0017190219561875512768734             6.6233854134701015681230274
             0.0017348731221694996176147             6.6233846121201693790681020
             0.0017700371595291189939780             6.6233828197966877482372183
             0.0018283061461025547789899             6.6233797648163550420008505
             0.0019018258273459922799709             6.6233757589765049900165650
             0.0019806691156080882126878             6.6233712755424809515147899
             0.0020541887968515254968283             6.6233669200149503097918569
             0.0021124577834249614986806             6.6233633481726030822756002
             0.0021476218207845810918843             6.6233611414128530370248882
             0.0021660004364605013778278             6.6233599817802488729512334
             0.0022065644356815609754274             6.6233574030461292991844857
             0.0022737814933192906918791             6.6233530171092356297890547
             0.0023585912170205865570627             6.6233472824481340879287927
             0.0024495420669170811164839             6.6233408836521885376669161
             0.0025343517906183769816675             6.6233346849139218548430108
             0.0026015688482561066981191             6.6233296130382788291512952
             0.0026421328474771662957188             6.6233264842956867113343833
             0.0026632261313429086459215             6.6233248490317935264215521
             0.0027095758039869404822098             6.6233212308201130369411658
             0.0027863800806221276570862             6.6233150883539710918057608
             0.0028832862783854150759422             6.6233070768425514884825134
             0.0029872095157473365495404             6.6232981612622170430881852
             0.0030841157135106239683964             6.6232895457320122289956998
             0.0031609199901458111432728             6.6232825104821095862916991
             0.0032072696627898429795611             6.6232781764055621565034926
             0.0032312648333412568625589             6.6232759218292338587730228
             0.0032837858909697927381477             6.6232709552382571516204735
             0.0033708165345356011152744             6.6232625373370552779306308
             0.0034806256379650130604320             6.6232515817440429373164079
             0.0035983860886233906030418             6.6232394183417806488023416
             0.0037081951920528025481993             6.6232276899194966190975720
             0.0037952258356186109253261             6.6232181297188503776851576
             0.0038477468932471468009149             6.6232122471914980366136660
             0.0038748311689800816852436             6.6232091998094828610987861
             0.0039339093231546525333830             6.6232025128535090274795039
             0.0040318054815842458565855             6.6231911952388342612607630
             0.0041553239222839148669930             6.6231764938925099528432838
             0.0042877864120697758987255             6.6231602056159886160457972
             0.0044113048527694449091330             6.6231445303369760324585513
             0.0045092010111990382323355             6.6231317731754080213590896
             0.0045682791653736086467941             6.6231239319382204655539681
             0.0045986397647839157357130             6.6231198848287995417649654
             0.0046646607270660524896533             6.6231110349147224169996662
             0.0047740615482925949364379             6.6230960754482373076257318
             0.0049120957578666531173628             6.6230766764450326178348405
             0.0050601251126110267930525             6.6230552232491159969640648
             0.0051981593221850849739774             6.6230346134135897884220867
             0.0053075601434116274207620             6.6230178642428239044193106
             0.0053735811056937641747022             6.6230075792772966636334786
             0.0054074052472772920693855             6.6230022883610395467712806
             0.0054807547292285273971002             6.6229907545406909719076793
             0.0056022993611851831449733             6.6229712803729849923684014
             0.0057556557712377647700874             6.6229460653408516179752041
             0.0059201168167716811119305             6.6229182267493218461140714
             0.0060734732268242627370447             6.6228915246386392823296774
             0.0061950178587809184849178             6.6228698524515294820957934
             0.0062683673407321538126324             6.6228565561761927327211197
             0.0063058422429847519816160             6.6228497364007594683243951
             0.0063869059561666163826743             6.6228349114554632137696899
             0.0065212335467865478744187             6.6228099059051688257682144
             0.0066907185889217846153088             6.6227775734414651154224885
             0.0068724761510762684413312             6.6227419307782380286653279
             0.0070419611932115051822212             6.6227077920803987254316780
             0.0071762887838314366739656             6.6226801167717361806808185
             0.0072573524970133010750239             6.6226631511120315209950604
             0.0072986653784308198542052             6.6226544725803888624682259
             0.0073878290344048455629000             6.6226356549990850197673353
             0.0075355787316212178433839             6.6226039442647595123503379
             0.0077219988374432431063599             6.6225629931794358640217979
             0.0079219177420493270408430             6.6225179116112657951020992
             0.0081083378478713514364573             6.6224747886896331294792617
             0.0082560875450877237169411             6.6224398678057738720781344
             0.0083452512010617502929977             6.6224184762024425054960375
             0.0083905892801400382835508             6.6224075602765459791498870
             0.0084882385904677549320896             6.6223839461944313811159191
             0.0086500495422137321788192             6.6223441860108067658075015
             0.0088542111433266776354678             6.6222928985168820759099617
             0.0090731562162153847617141             6.6222365090613264371199875
             0.0092773178173283302183627             6.6221826342113621066687301
             0.0094391287690743074650923             6.6221390497043897127582568
             0.0095367780794020241136311             6.6221123691306305047987735
             0.0095863285746369351209006             6.6220987845450940412206364
             0.0096928492508798775456613             6.6220694597148099802552679
             0.0098693606050886222014196             6.6220201220734677960422232
             0.0100920701330966203906891             6.6219565470775281212922891
             0.0103309062000989850677035             6.6218867287414564515302118
             0.0105536157281069832569731             6.6218200975909589089951623
             0.0107301270823157279127313             6.6217662427015664405871576
             0.0108366477585586703374920             6.6217332957642849322610346
             0.0108905978884460494932052             6.6217165547870431296928473
             0.0110063756421657464590336             6.6216804866594678458113776
             0.0111982265467704244360503             6.6216198467222557866307397
             0.0114402904332776104989744             6.6215417833779612877265208
             0.0116998823202246575447827             6.6214561456027647423638882
             0.0119419462067318436077068             6.6213745008211377651718976
             0.0121337971113365215847235             6.6213085672222549149523729
             0.0122495748650562185505519             6.6212682544274512608240002
             0.0123081118480919179253297             6.6212478091066477858817052
             0.0124335323908499016665186             6.6212038391030079154120358
             0.0126413619937836736728531             6.6211299624441704025912259
             0.0129035866703941792810184             6.6210349441413551829782591
             0.0131847992031169369830934             6.6209308097411634363993471
             0.0134470238797274425912587             6.6208316252325625228536410
             0.0136548534826612145975933             6.6207515905730742744594863
             0.0137802740254191983387821             6.6207026828397808060344687
             0.0138435850800990647990751             6.6206779213782551707367929
             0.0139790341234568675499172             6.6206247574395336030761428
             0.0142034815726528977630760             6.6205354877595370410858777
             0.0144866734709708545880691             6.6204207667301737672005402
             0.0147903714753003547033305             6.6202951555185363119448994
             0.0150735633736183115283236             6.6201756212821294411696726
             0.0152980108228143417414824             6.6200792372765580040550049
             0.0154334598661721444923245             6.6200203687876255642663637
             0.0155017322109920318434773             6.6199906120882099358482265
             0.0156475954665111841035419             6.6199268215916156066214171
             0.0158892999099026384357547             6.6198197690518272295889801
             0.0161942654615321833533326             6.6196823017817640888438291
             0.0165213137632994506998063             6.6195319150902518501311533
             0.0168262793149289956173842             6.6193889229380822314396937
             0.0170679837583204499495970             6.6192737041537306197369617
             0.0172138470138396039443851             6.6192033656351041415177860
             0.0172872678672953625222952             6.6191678640615307926964306
             0.0174439310465373947911516             6.6190918671969978248625921
             0.0177035316320574391546483             6.6189643975295568978367555
             0.0180310772686026951627802             6.6188008311713009135246466
             0.0183823406936387614973860             6.6186220374700779345289448
             0.0187098863301840175055180             6.6184521677989618382298431
             0.0189694869157040618690147             6.6183153812965640483412244
             0.0191261500949460941378710             6.6182319138193754781696043
             0.0192049066755335673395422             6.6181898442188638043148785
             0.0193727554900600153209300             6.6180999079210360847014272
             0.0196508913656418086890465             6.6179491324723231926441258
             0.0200018235187069196023835             6.6177557924590590943125790
             0.0203781668928428097431471             6.6175446142944664984497649
             0.0207290990459079206564841             6.6173441241127664014243237
             0.0210072349214897140246006             6.6171827801000189239744032
             0.0211750837360161620059884             6.6170843695017556029824846
             0.0212593632622312019020416             6.6170348325362340347055579
             0.0214387834236035926260833             6.6169290650691623412171793
             0.0217360937371803009110494             6.6167518319380045355160291
             0.0221112188383693966664545             6.6165247110022651355620837
             0.0225135069874361423702958             6.6162768134696507971170831
             0.0228886320886252381257009             6.6160416258824623625400818
