# space   potential
   0.0000000156015413208152497  -0.0040064247722639365761887
   0.0000000798868015760608593  -0.0316681253626912295739970
   0.0000001864114571033658699  -0.0891031936072880781374295
   0.0000003208167244588270651  -0.1709890442008789035455152
   0.0000004649543629635730194  -0.2664861953041564590627388
   0.0000005993596303190342410  -0.3612392060268511118081847
   0.0000007058842858463391722  -0.4397544526690212451924822
   0.0000007701695461015847818  -0.4884847159569308816529087
   0.0000008949818766681067796  -0.5850674623252716255450423
   0.0000013449786984548260463  -0.9134395101779456682677960
   0.0000020906512871459608828  -1.3564434420459203778364099
   0.0000030314881586341898046  -1.7873406759430212620287648
   0.0000040404516281674109554  -2.1388709936897765118146708
   0.0000049812884996556398772  -2.3883322953149721534771288
   0.0000057269610883467742901  -2.5409396835765836186737943
   0.0000061769579101334944038  -2.6155546661577320222136223
   0.0000065825979844746905793  -2.6722666307348230674278966
   0.0000078040179293243580074  -2.7973344769414283383923703
   0.0000098279863843431545601  -2.9151802268964841502452146
   0.0000123816864640969162353  -2.9868134659158136479106815
   0.0000151203015956870918024  -3.0210026756493242316992109
   0.0000176740016754408534776  -3.0356231542127742883963037
   0.0000196979701304596500303  -3.0424062917909817649331217
   0.0000209193900753093174583  -3.0458419941867607150243202
   0.0000217930763892749710200  -3.0483055396409461934581486
   0.0000241716310187190577255  -3.0552977724318637342548755
   0.0000281130432732293432526  -3.0672305150649861182898803
   0.0000330860381653814061755  -3.0818803701466932487562644
   0.0000384191307900570065909  -3.0961899414019473653070236
   0.0000433921256822090729019  -3.1077350371902969783377557
   0.0000473335379367193550409  -3.1154696000449115800279287
   0.0000497120925661634417464  -3.1194910858693338795433192
   0.0000512410436156033363263  -3.1218120359875838332186504
   0.0000551624444911733176605  -3.1269121581485213035023207
   0.0000616604484783389410196  -3.1332660688805429316516893
   0.0000698591697870220711434  -3.1387415636590456635701685
   0.0000786515657358115939440  -3.1426727316158773462007048
   0.0000868502870444947240678  -3.1452952243529277431832725
   0.0000933482910316603474270  -3.1469815696717358122214137
   0.0000972696919072303287611  -3.1479100414794420892405924
   0.0000996411261879942344389  -3.1484543023360678226651999
   0.0001054910848712215789766  -3.1497569989735145767895119
   0.0001151848285242063415915  -3.1517894803195005692941777
   0.0001274157078535533048694  -3.1541260564688404777200503
   0.0001405322329574851866058  -3.1563457001801000778584694
   0.0001527631122868321634362  -3.1581462397123223340145159
   0.0001624568559398169124985  -3.1593876464572292483978799
   0.0001683068146230442705888  -3.1600571189882988853980805
   0.0001717079506309820014897  -3.1604187695969461202594175
   0.0001798721786833981845823  -3.1612098290983112747198902
   0.0001934008099353659386986  -3.1623183105606664788922444
   0.0002104702788895095315769  -3.1634387424985890291395663
   0.0002287757589796122765623  -3.1643915844174528295695836
   0.0002458452279337558694407  -3.1651184837707520003391437
   0.0002593738591857236235570  -3.1656173154715521178559356
   0.0002675380872381398337546  -3.1658942205554545523682464
   0.0002721561434691011430176  -3.1660444943358752034612280
   0.0002830203524522376264637  -3.1663820769345858430199314
   0.0003010230192363521294595  -3.1668958087282259583616906
   0.0003237375094194250941745  -3.1674707891525670788723801
   0.0003480967703267270983020  -3.1680064891884320843473688
   0.0003708112605098000630170  -3.1684380865071930521992272
   0.0003888139272939145660128  -3.1687373066454003200931311
   0.0003996781362770510494589  -3.1689005694695198123156388
   0.0004057003312268857579855  -3.1689856518809933483282748
   0.0004196502327022740442414  -3.1691687919586311039665816
   0.0004427660829516992567825  -3.1694341690148606360821759
   0.0004719320259678343762282  -3.1697123308807078068127794
   0.0005032098935233642522311  -3.1699544040709874970218607
   0.0005323758365394994258868  -3.1701387586142799612787258
   0.0005554916867889246384279  -3.1702621428917878709796696
   0.0005694415882643128704738  -3.1703284619511267194980064
   0.0005770551404288708262705  -3.1703623672299268143603967
   0.0005944764459580424448976  -3.1704343266540342405335196
   0.0006233446276059421108096  -3.1705376233060551527387361
   0.0006597684550592720865644  -3.1706425911793103544766836
   0.0006988297550940583387560  -3.1707276020259347326657462
   0.0007352535825473883145109  -3.1707843206067689578731006
   0.0007641217641952879804229  -3.1708154530887537880801119
   0.0007815430697244595990500  -3.1708287972546709276855381
   0.0007909351975995903248629  -3.1708343789565973658284292
   0.0008122136187440765885820  -3.1708430730939181074745647
   0.0008474732797236145601105  -3.1708464207596414041745447
   0.0008919614232182723105938  -3.1708333832893060844071442
   0.0009396709815633431722368  -3.1708011871746895060653060
   0.0009841591250580009227200  -3.1707568099257761318199300
   0.0010194187860375388942485  -3.1707131946218884976929075
   0.0010406972071820251579677  -3.1706836674100848938451236
   0.0010520551292635784475932  -3.1706669935208946498050864
   0.0010775763775849110485960  -3.1706273413979939590490176
   0.0011198666658292510695666  -3.1705554208800172943938378
   0.0011732255569693692421468  -3.1704546924845762312372699
   0.0012304481994557532175544  -3.1703357301757133512865039
   0.0012838070905958713901346  -3.1702158063833998369318579
   0.0013260973788402114111051  -3.1701152452730756436949378
   0.0013516186271615440121080  -3.1700523916396798895789289
   0.0013651295619453700930235  -3.1700184919685936435485019
   0.0013952793490050803982411  -3.1699413594945453631623877
   0.0014452394124473864293196  -3.1698093333895860368443209
   0.0015082754828370976713653  -3.1696359922118446661443159
   0.0015758760352958236985316  -3.1694427173792063534563113
   0.0016389121056855349405773  -3.1692564600097612448337259
   0.0016888721691278409716558  -3.1691051690106326610418819
   0.0017190219561875512768734  -3.1690124364282068469833575
   0.0017348731221694996176147  -3.1689632757080179459308056
   0.0017700371595291189939780  -3.1688532642339750644566720
   0.0018283061461025547789899  -3.1686682438688609231292048
   0.0019018258273459922799709  -3.1684303681944530062253307
   0.0019806691156080882126878  -3.1681703489645451909950680
   0.0020541887968515254968283  -3.1679237942366045288622445
   0.0021124577834249614986806  -3.1677258520868196711717246
   0.0021476218207845810918843  -3.1676053972510143097451873
   0.0021660004364605013778278  -3.1675421562952785770050923
   0.0022065644356815609754274  -3.1674019127673216367213627
   0.0022737814933192906918791  -3.1671676267986628161565932
   0.0023585912170205865570627  -3.1668689322692236132184007
   0.0024495420669170811164839  -3.1665451681011012041722097
   0.0025343517906183769816675  -3.1662403949479447362591600
   0.0026015688482561066981191  -3.1659970647107886776439045
   0.0026421328474771662957188  -3.1658495167787052970709283
   0.0026632261313429086459215  -3.1657725930380355983118079
   0.0027095758039869404822098  -3.1656031050546369343123843
   0.0027863800806221276570862  -3.1653209387188270262925016
   0.0028832862783854150759422  -3.1649627629257959249287069
   0.0029872095157473365495404  -3.1645762274381930012623343
   0.0030841157135106239683964  -3.1642137524265034898007798
   0.0031609199901458111432728  -3.1639251950754774256324708
   0.0032072696627898429795611  -3.1637505505028871155559500
   0.0032312648333412568625589  -3.1636599943532304202165051
   0.0032837858909697927381477  -3.1634614563923104668674569
   0.0033708165345356011152744  -3.1631315280436731462998523
   0.0034806256379650130604320  -3.1627137016473749753231459
   0.0035983860886233906030418  -3.1622638778520233415747498
   0.0037081951920528025481993  -3.1618429567703887350660352
   0.0037952258356186109253261  -3.1615084303239107121896723
   0.0038477468932471468009149  -3.1613061844095575736446335
   0.0038748311689800816852436  -3.1612017864655554966191175
   0.0039339093231546525333830  -3.1609738322703782031908304
   0.0040318054815842458565855  -3.1605954258828106162582117
   0.0041553239222839148669930  -3.1601168688844682996830215
   0.0042877864120697758987255  -3.1596024033670686570474118
   0.0044113048527694449091330  -3.1591216121355842894047328
   0.0045092010111990382323355  -3.1587398876408361303447236
   0.0045682791653736086467941  -3.1585092590196408579572562
   0.0045986397647839157357130  -3.1583906631334364156771244
   0.0046646607270660524896533  -3.1581326009548726929665463
   0.0047740615482925949364379  -3.1577044927344761759968605
   0.0049120957578666531173628  -3.1571635371233379707689437
   0.0050601251126110267930525  -3.1565825066984696256611187
   0.0051981593221850849739774  -3.1560399432234067518265874
   0.0053075601434116274207620  -3.1556094477283553878521616
   0.0053735811056937641747022  -3.1553494619066126958273344
   0.0054074052472772920693855  -3.1552162115837969480480751
   0.0054807547292285273971002  -3.1549271316492171202128247
   0.0056022993611851831449733  -3.1544477659013629988749017
   0.0057556557712377647700874  -3.1538423707505449655741359
   0.0059201168167716811119305  -3.1531925003890886038959707
   0.0060734732268242627370447  -3.1525859717968307549540441
   0.0061950178587809184849178  -3.1521049233227227404086079
   0.0062683673407321538126324  -3.1518144875965066198375553
   0.0063058422429847519816160  -3.1516660644258926993188652
   0.0063869059561666163826743  -3.1513449211510811132086474
   0.0065212335467865478744187  -3.1508125321855828815387213
   0.0066907185889217846153088  -3.1501404161801236369910839
   0.0068724761510762684413312  -3.1494192005445533766305743
   0.0070419611932115051822212  -3.1487463223370251164112688
   0.0071762887838314366739656  -3.1482128015455659308940994
   0.0072573524970133010750239  -3.1478907461340877027566876
   0.0072986653784308198542052  -3.1477265915811574181759624
   0.0073878290344048455629000  -3.1473722519308853229347278
   0.0075355787316212178433839  -3.1467849404941334867658043
   0.0077219988374432431063599  -3.1460436719818356543498794
   0.0079219177420493270408430  -3.1452484642872691189552370
   0.0081083378478713514364573  -3.1445067361156402441224600
   0.0082560875450877237169411  -3.1439187415211504728063119
   0.0083452512010617502929977  -3.1435638508078564967718194
   0.0083905892801400382835508  -3.1433833823012826691467581
   0.0084882385904677549320896  -3.1429946604998932890850938
   0.0086500495422137321788192  -3.1423504470297802804168441
   0.0088542111433266776354678  -3.1415375046105524781125951
   0.0090731562162153847617141  -3.1406655747673655199037057
   0.0092773178173283302183627  -3.1398524294514476018491678
   0.0094391287690743074650923  -3.1392079133631844989338333
   0.0095367780794020241136311  -3.1388189465392684063260731
   0.0095863285746369351209006  -3.1386215681760329943017496
   0.0096928492508798775456613  -3.1381972490275704679163482
   0.0098693606050886222014196  -3.1374941103309961221157209
   0.0100920701330966203906891  -3.1366069259011477576848392
   0.0103309062000989850677035  -3.1356555030203372425035013
   0.0105536157281069832569731  -3.1347683430657595771151591
   0.0107301270823157279127313  -3.1340652385466940543778946
   0.0108366477585586703374920  -3.1336409450759239447847904
   0.0108905978884460494932052  -3.1334260555429218619849507
   0.0110063756421657464590336  -3.1329649114942093035551807
   0.0111982265467704244360503  -3.1322008074395357724029054
   0.0114402904332776104989744  -3.1312367973515393693162423
   0.0116998823202246575447827  -3.1302031004478956255354660
   0.0119419462067318436077068  -3.1292393245039065163837222
   0.0121337971113365215847235  -3.1284755650499480594817214
   0.0122495748650562185505519  -3.1280146960529808808360031
   0.0123081118480919179253297  -3.1277816944480743011069990
   0.0124335323908499016665186  -3.1272824981251128306780629
   0.0126413619937836736728531  -3.1264553914822421631924954
   0.0129035866703941792810184  -3.1254119800532857986752333
   0.0131847992031169369830934  -3.1242932415544713009580846
   0.0134470238797274425912587  -3.1232502649096631763825371
   0.0136548534826612145975933  -3.1224237998055062170976726
   0.0137802740254191983387821  -3.1219251169730779515987251
   0.0138435850800990647990751  -3.1216734073285472561565257
   0.0139790341234568675499172  -3.1211349412170852346548600
   0.0142034815726528977630760  -3.1202428130189749921896691
   0.0144866734709708545880691  -3.1191174508139414278673485
   0.0147903714753003547033305  -3.1179109349581004551055230
   0.0150735633736183115283236  -3.1167862057032840183978806
   0.0152980108228143417414824  -3.1158950122273436633690835
   0.0154334598661721444923245  -3.1153572949498027355730301
   0.0155017322109920318434773  -3.1150862898342595030953817
   0.0156475954665111841035419  -3.1145073539635599324526538
   0.0158892999099026384357547  -3.1135482157919560641801127
   0.0161942654615321833533326  -3.1123383943934803674835621
   0.0165213137632994506998063  -3.1110414122514318258083676
   0.0168262793149289956173842  -3.1098324246028505868366665
   0.0170679837583204499495970  -3.1088745181610279999517843
   0.0172138470138396039443851  -3.1082965694748714291506531
   0.0172872678672953625222952  -3.1080056929800563558785598
   0.0174439310465373947911516  -3.1073851112626829085172631
   0.0177035316320574391546483  -3.1063570154329442907226166
   0.0180310772686026951627802  -3.1050602797687489875499978
   0.0183823406936387614973860  -3.1036702018815485182301472
   0.0187098863301840175055180  -3.1023745074806221566632303
   0.0189694869157040618690147  -3.1013479502629435202720742
   0.0191261500949460941378710  -3.1007286019571096424840562
   0.0192049066755335673395422  -3.1004172922502810649802996
   0.0193727554900600153209300  -3.0997539178801236658955531
   0.0196508913656418086890465  -3.0986549661641182851212761
   0.0200018235187069196023835  -3.0972689251483189742941704
   0.0203781668928428097431471  -3.0957831925297618624881579
   0.0207290990459079206564841  -3.0943984103586763545479243
   0.0210072349214897140246006  -3.0933013189837179623964403
   0.0211750837360161620059884  -3.0926394361275271194244851
   0.0212593632622312019020416  -3.0923071477044743460282916
   0.0214387834236035926260833  -3.0915998679019938144563184
   0.0217360937371803009110494  -3.0904282192304788345893485
   0.0221112188383693966664545  -3.0889505552167246804629031
   0.0225135069874361423702958  -3.0873666891919713251013491
   0.0228886320886252381257009  -3.0858905144956363386654630
   0.0231859424022019464106670  -3.0847210669236573288287673
   0.0233653625635743371347086  -3.0840155519757304070083137
   0.0234553522539127992652119  -3.0836617576964560072383392
   0.0236467294736926632314766  -3.0829094979815603316808392
   0.0239638533731974488760752  -3.0816633754070585915485481
   0.0243639778541146559409647  -3.0800918527817278125269240
   0.0247930756039432820259094  -3.0784074639887246682690147
   0.0251932000848604890907989  -3.0768376764905074338685154
   0.0255103239843652747353975  -3.0755941184253279274685156
   0.0257017012041451387016622  -3.0748439150541364561775026
   0.0257975882771028681983427  -3.0744681080304818721060656
   0.0260013082668517428452937  -3.0736698361747167851376616
   0.0263388849002177752312015  -3.0723475333385894536775140
   0.0267648151924672304813324  -3.0706800065414747713532506
   0.0272215873688887756431942  -3.0688928033693372299239854
   0.0276475176611382308933251  -3.0672272749956586146424797
   0.0279850942945042632792330  -3.0659079259128350081198278
   0.0281888142842531379261839  -3.0651120225954171516491442
   0.0282907859583259868596627  -3.0647137179612804480655086
   0.0285072344296053992174222  -3.0638684476799435962846019
   0.0288659029447658338485283  -3.0624683348591168474683855
   0.0293184454799516706902107  -3.0607027558994435167960546
   0.0298037569087971528081216  -3.0588105524284210368080039
   0.0302562994439829896498040  -3.0570472546188716123083395
   0.0306149679591434242809100  -3.0556505135059035538347416
   0.0308314164304228366386695  -3.0548079469726348023073115
   0.0309396599241066570795677  -3.0543866835782158553058707
   0.0311692225884781411171520  -3.0534934780636548978804967
   0.0315496221333661439056861  -3.0520140079872559724094572
   0.0320295833430924992146771  -3.0501484337117510392545228
   0.0325442988501929431066628  -3.0481491574148393830512305
   0.0330242600599192984156538  -3.0462861682125175200042122
   0.0334046596048073046736349  -3.0448105191227758936634018
   0.0336342222691787817723252  -3.0439203776798695599836719
   0.0337489248009694153829230  -3.0434757197170680953490773
   0.0339919873699945015999013  -3.0425336950116705914126669
   0.0343947570925432419275403  -3.0409734083973480878171358
   0.0349029434084142387018090  -3.0390060073952405161890056
   0.0354479278196006830636833  -3.0368977064641340390949154
   0.0359561141354716798379521  -3.0349332172923029204980594
   0.0363588838580204201655910  -3.0333772346898992822161745
   0.0366019464270455063825693  -3.0324386614374354564915848
   0.0367232952154388087029346  -3.0319702000172430444990823
   0.0369802434006790275988763  -3.0309785282936450023782982
   0.0374060224488216644389560  -3.0293360592679339227117907
   0.0379432403024414430237066  -3.0272651186758827712708353
   0.0385193584435449057346013  -3.0250459692653990373401030
   0.0390565762971646843193518  -3.0229782916226635158807312
   0.0394823553453073211594315  -3.0213406456411693312702482
   0.0397393035305475400553732  -3.0203528416240557064043060
   0.0398674857940393492783393  -3.0198601963129023673104712
   0.0401387053070562313528136  -3.0188181090514589755002817
   0.0405881328287259340870108  -3.0170921903729674973249075
   0.0411551886516986209496594  -3.0149161224009630721809572
   0.0417633053485501476442820  -3.0125844355630513327071185
   0.0423303611715228345069306  -3.0104120074435507525834055
   0.0427797886931925372411278  -3.0086914689518029497605767
   0.0430510082062094193156021  -3.0076536962101201311270415
   0.0431862111632956013895779  -3.0071365165193579827018766
   0.0434720877156506840810479  -3.0060433075949997139275638
   0.0439458028587806082132516  -3.0042327757577451663451029
   0.0445435030827103506378961  -3.0019501241033235139354929
   0.0451844831611409591953787  -2.9995043526297502367583547
   0.0457821833850707016200232  -2.9972257448649566313747528
   0.0462558985282006257522269  -2.9954211904634755470056007
   0.0465417750805557084436970  -2.9943327750338091242099381
   0.0466841859497321085004096  -2.9937907418809377446677900
   0.0469851052529869153695508  -2.9926457705814084597761848
   0.0474837471655102302814377  -2.9907495707892373104641592
   0.0481128982220011408577065  -2.9883590168693254796039582
   0.0487876065078418630349688  -2.9857977619240791966603865
   0.0494167575643327736112376  -2.9834116843246252237520366
   0.0499153994768560885231246  -2.9815221011867754086210880
   0.0502163187801108953922657  -2.9803824360131367932069679
   0.0503661247798733655023362  -2.9798152631381698007828618
   0.0506824725455894270487178  -2.9786179570884980805089981
   0.0512066803754392951830710  -2.9766351480818258323779446
   0.0518680886960955142561680  -2.9741355170875758417992074
   0.0525773900151773679323419  -2.9714575346556806323405908
   0.0532387983358335870054390  -2.9689628419822029492536331
   0.0537630061656834551397921  -2.9669873325565387922608807
